#Acquired:	08/23/2026 10:00:00
#Title:	Alpha Cellulose reference
#Acq. time (s):	15
#Accumulations:	3
#Range (cm-1):	267 - 2004
#Grating:	1800
#Objective:	x50
#Laser:	785nm
#Spectro:	iHR320
267.13	0.001647415
269.33	0.002771488
271.53	0.005034222
273.73	0.006023068
275.92	0.005316029
278.12	0.005063233
280.31	0.005273072
282.51	0.005199312
284.7	0.004978168
286.89	0.004860801
289.08	0.004838219
291.27	0.00477417
293.46	0.004667231
295.65	0.004669397
297.84	0.004779017
300.02	0.004872172
302.21	0.00495212
304.39	0.004931989
306.58	0.004781097
308.76	0.004706621
310.94	0.004734669
313.12	0.004683098
315.3	0.004564752
317.48	0.004489515
319.66	0.004447952
321.83	0.004572746
324.01	0.00489995
326.18	0.00515669
328.36	0.005330852
330.53	0.005576757
332.7	0.005896669
334.87	0.006328016
337.04	0.0068895
339.21	0.007647902
341.38	0.008596592
343.54	0.009664428
345.71	0.010806988
347.88	0.011922942
350.04	0.012991828
352.2	0.013679232
354.37	0.013957102
356.53	0.014205182
358.69	0.014497366
360.85	0.01493229
363	0.015565371
365.16	0.016815965
367.32	0.018663178
369.47	0.020793063
371.63	0.023054316
373.78	0.024846062
375.93	0.025956014
378.09	0.02575523
380.24	0.024119679
382.39	0.02128856
384.54	0.017392399
386.68	0.013014036
388.83	0.008456338
390.98	0.004570271
393.12	0.001578789
395.27	-3.62547E-06
397.41	4.75054E-06
399.55	3.23416E-05
401.69	-0.000110639
403.83	7.55876E-05
405.97	0.000445844
408.11	0.001028931
410.25	0.00187539
412.38	0.002911923
414.52	0.00413257
416.65	0.005789073
418.79	0.007877916
420.92	0.010239178
423.05	0.012803241
425.18	0.015507906
427.31	0.018232761
429.44	0.020654173
431.56	0.02265991
433.69	0.023961064
435.82	0.024498413
437.94	0.024335331
440.07	0.023510152
442.19	0.022471977
444.31	0.021358506
446.43	0.020366418
448.55	0.01956829
450.67	0.019144035
452.79	0.019118441
454.9	0.018798225
457.02	0.01808927
459.14	0.017035956
461.25	0.015616457
463.36	0.013815393
465.47	0.011699411
467.59	0.00989446
469.7	0.008542526
471.81	0.007674916
473.91	0.00736811
476.02	0.007584091
478.13	0.008283201
480.23	0.00918566
482.34	0.01020007
484.44	0.011147647
486.54	0.011933452
488.64	0.012640199
490.74	0.01325039
492.84	0.013710591
494.94	0.014021767
497.04	0.014348076
499.14	0.0147271
501.23	0.01500321
503.33	0.015176054
505.42	0.015480014
507.51	0.015901929
509.61	0.016387618
511.7	0.016894466
513.79	0.017245385
515.88	0.017391106
517.96	0.016906932
520.05	0.015735058
522.14	0.014187664
524.22	0.012339644
526.31	0.010318783
528.39	0.008218898
530.47	0.006637969
532.55	0.005706819
534.63	0.004916052
536.71	0.004247076
538.79	0.003846666
540.87	0.003670178
542.94	0.003409327
545.02	0.00304606
547.09	0.002722062
549.17	0.00241551
551.24	0.002461288
553.31	0.002912257
555.38	0.003433543
557.45	0.004003652
559.52	0.004634543
561.59	0.005248329
563.65	0.005928727
565.72	0.006682044
567.78	0.007084867
569.85	0.007082602
571.91	0.007119036
573.97	0.007223651
576.03	0.007194137
578.09	0.00706103
580.15	0.007000868
582.21	0.007023253
584.26	0.007062558
586.32	0.007129468
588.37	0.007179261
590.43	0.007194848
592.48	0.007227723
594.53	0.007289327
596.58	0.007272544
598.63	0.007165179
600.68	0.007187478
602.73	0.007349328
604.78	0.007510242
606.82	0.007673604
608.87	0.007748065
610.91	0.007701038
612.96	0.007654437
615	0.00761424
617.04	0.007512807
619.08	0.00736423
621.12	0.007185313
623.16	0.00697479
625.19	0.006831499
627.23	0.006784162
629.27	0.00670052
631.3	0.006563831
633.33	0.006598176
635.37	0.006810472
637.4	0.006954079
639.43	0.007004832
641.46	0.007018804
643.49	0.006989049
645.51	0.006782397
647.54	0.006391514
649.57	0.006109167
651.59	0.005973008
653.61	0.005856196
655.64	0.005767771
657.66	0.005791724
659.68	0.005923703
661.7	0.005986133
663.72	0.005951165
665.73	0.005927755
667.75	0.005915521
669.77	0.005796696
671.78	0.005563741
673.8	0.005395268
675.81	0.005317593
677.82	0.005158024
679.83	0.004919842
681.84	0.004785939
683.85	0.00476605
685.86	0.004809069
687.87	0.004920803
689.87	0.005094042
691.88	0.005303159
693.88	0.005533182
695.88	0.005783488
697.89	0.005840594
699.89	0.005654616
701.89	0.005585727
703.89	0.005685557
705.88	0.005503535
707.88	0.005022
709.88	0.00477942
711.87	0.004810132
713.87	0.004825732
715.86	0.00485194
717.85	0.004925601
719.84	0.004989238
721.83	0.005248274
723.82	0.005728426
725.81	0.005886994
727.8	0.005666745
729.79	0.0054574
731.77	0.00526667
733.76	0.004964976
735.74	0.004585739
737.72	0.004302954
739.7	0.004142169
741.68	0.004004947
743.66	0.0038796
745.64	0.003896669
747.62	0.004065504
749.6	0.004052083
751.57	0.003821389
753.55	0.003637489
755.52	0.003499561
757.49	0.003358148
759.46	0.003241108
761.43	0.003109327
763.4	0.002954071
765.37	0.002860609
767.34	0.002836527
769.31	0.002796578
771.27	0.002748574
773.24	0.002688756
775.2	0.002595785
777.16	0.002664652
779.13	0.002920176
781.09	0.003073429
783.05	0.003088036
785.01	0.003169888
786.96	0.00330747
788.92	0.00327961
790.88	0.003101675
792.83	0.002759267
794.78	0.00223077
796.74	0.001935586
798.69	0.001947132
800.64	0.001904861
802.59	0.001786372
804.54	0.001906954
806.49	0.002264339
808.44	0.002416842
810.38	0.002336118
812.33	0.002208692
814.27	0.002012165
816.21	0.001853945
818.16	0.001777283
820.1	0.001671628
822.04	0.001523433
823.98	0.001505381
825.91	0.001638012
827.85	0.001577518
829.79	0.001293576
831.72	0.001103644
833.66	0.001018173
835.59	0.000909617
837.52	0.000794042
839.45	0.000730441
841.38	0.000721402
843.31	0.000686848
845.24	0.000622441
847.17	0.000622133
849.1	0.000683798
851.02	0.000801383
852.95	0.000998687
854.87	0.001105295
856.79	0.001100444
858.71	0.001268511
860.63	0.001646388
862.55	0.002034532
864.47	0.002451049
866.39	0.00305754
868.31	0.003843191
870.22	0.0048873
872.14	0.006235966
874.05	0.007488091
875.96	0.008602809
877.87	0.010029904
879.78	0.011793355
881.69	0.013724583
883.6	0.015820907
885.51	0.018244054
887.42	0.020910263
889.32	0.023707527
891.23	0.026537267
893.13	0.028828431
895.03	0.030429307
896.93	0.03120514
898.84	0.031073681
900.74	0.030176203
902.63	0.028585336
904.53	0.026495224
906.43	0.024021327
908.32	0.021607653
910.22	0.019398984
912.11	0.017236252
914.01	0.015178305
915.9	0.013255263
917.79	0.01147211
919.68	0.009750393
921.57	0.008086755
923.46	0.006580549
925.34	0.005244043
927.23	0.004053042
929.11	0.003015124
931	0.002178503
932.88	0.001537725
934.76	0.001060757
936.64	0.000741292
938.52	0.000475926
940.4	0.000241953
942.28	9.50969E-05
944.16	4.38328E-05
946.03	3.62575E-05
947.91	7.28089E-05
949.78	0.000363308
951.65	0.000942368
953.53	0.001613476
955.4	0.002344856
957.27	0.003390897
959.14	0.004734352
961.01	0.005997679
962.87	0.007099131
964.74	0.008165772
966.6	0.009146691
968.47	0.009684797
970.33	0.009760964
972.19	0.009485319
974.05	0.008885766
975.91	0.00822568
977.77	0.007624044
979.63	0.007186494
981.49	0.006961257
983.35	0.007348306
985.2	0.008408402
987.06	0.009447151
988.91	0.010338267
990.76	0.011447647
992.61	0.012718395
994.46	0.013426881
996.31	0.013504191
998.16	0.013412852
1000.01	0.013182193
1001.85	0.01277677
1003.7	0.012288399
1005.54	0.012020978
1007.39	0.012056338
1009.23	0.012356196
1011.07	0.01294464
1012.91	0.013895704
1014.75	0.015213448
1016.59	0.016559753
1018.43	0.017867813
1020.26	0.019397501
1022.1	0.021138737
1023.93	0.022822927
1025.77	0.024400764
1027.6	0.02620079
1029.43	0.028215049
1031.26	0.029994338
1033.09	0.031506099
1034.92	0.032810828
1036.75	0.033883334
1038.57	0.03483916
1040.4	0.035745751
1042.22	0.03661615
1044.05	0.0374739
1045.87	0.038749259
1047.69	0.040477872
1049.51	0.042298334
1051.33	0.044207213
1053.15	0.045836357
1054.97	0.047068541
1056.78	0.048415377
1058.6	0.049955301
1060.41	0.051107289
1062.23	0.051886358
1064.04	0.053150933
1065.85	0.055044983
1067.66	0.057074957
1069.47	0.059351525
1071.28	0.062357536
1073.09	0.066197599
1074.9	0.070895095
1076.7	0.076522471
1078.51	0.083454892
1080.31	0.091659457
1082.11	0.100988367
1083.92	0.111173149
1085.72	0.12205277
1087.52	0.133210337
1089.31	0.143196932
1091.11	0.151507942
1092.91	0.157109077
1094.7	0.159724567
1096.5	0.159095785
1098.29	0.155380273
1100.09	0.150194964
1101.88	0.144135734
1103.67	0.138786916
1105.46	0.134806126
1107.25	0.132749178
1109.04	0.132826257
1110.82	0.134649512
1112.61	0.137961677
1114.39	0.141273345
1116.18	0.144024913
1117.96	0.145370905
1119.74	0.144822774
1121.52	0.142282627
1123.3	0.137703427
1125.08	0.130945297
1126.86	0.122219208
1128.64	0.112847495
1130.41	0.103282295
1132.19	0.094231211
1133.96	0.086150815
1135.74	0.079266017
1137.51	0.073721513
1139.28	0.069642448
1141.05	0.066998506
1142.82	0.064879477
1144.59	0.06300018
1146.35	0.061488806
1148.12	0.060143291
1149.88	0.058131908
1151.65	0.055279965
1153.41	0.05204183
1155.17	0.048422622
1156.93	0.044216942
1158.69	0.039526963
1160.45	0.034836843
1162.21	0.030265531
1163.97	0.026084371
1165.73	0.022442944
1167.48	0.019114774
1169.23	0.016103127
1170.99	0.013642817
1172.74	0.011719286
1174.49	0.010005664
1176.24	0.008455192
1177.99	0.007053226
1179.74	0.00574752
1181.49	0.00454524
1183.23	0.003442904
1184.98	0.002473039
1186.72	0.001654033
1188.46	0.001010385
1190.21	0.000531914
1191.95	0.000400111
1193.69	0.00061251
1195.43	0.000875413
1197.17	0.001137827
1198.9	0.001314143
1200.64	0.001352361
1202.38	0.001210253
1204.11	0.00088867
1205.84	0.000515237
1207.58	0.000104449
1209.31	-8.93869E-05
1211.04	-9.21173E-06
1212.77	2.76402E-05
1214.49	3.54193E-05
1216.22	-5.22522E-06
1217.95	-0.000117503
1219.67	3.99655E-05
1221.4	0.000497916
1223.12	0.00121948
1224.84	0.002219429
1226.57	0.003249407
1228.29	0.004258796
1230.01	0.005195531
1231.72	0.006008444
1233.44	0.006822105
1235.16	0.007647384
1236.87	0.008409168
1238.59	0.009124472
1240.3	0.009845438
1242.01	0.01056986
1243.73	0.011421018
1245.44	0.012427879
1247.15	0.013376964
1248.85	0.014247507
1250.56	0.0152121
1252.27	0.016248004
1253.97	0.017313918
1255.68	0.018415775
1257.38	0.019317358
1259.08	0.019953676
1260.79	0.02061626
1262.49	0.021322918
1264.19	0.021670276
1265.88	0.021644319
1267.58	0.021574128
1269.28	0.021470581
1270.97	0.021337157
1272.67	0.021231521
1274.36	0.021030732
1276.05	0.020743522
1277.75	0.020522023
1279.44	0.020405441
1281.13	0.020360511
1282.82	0.020406874
1284.5	0.020781753
1286.19	0.02149462
1287.88	0.022409024
1289.56	0.023493941
1291.24	0.024572293
1292.93	0.025580899
1294.61	0.026370738
1296.29	0.02692703
1297.97	0.027239753
1299.65	0.027314189
1301.33	0.027658902
1303	0.028368573
1304.68	0.029247722
1306.35	0.030308714
1308.03	0.031677019
1309.7	0.033328819
1311.37	0.034864916
1313.04	0.036218265
1314.71	0.037507077
1316.38	0.038710462
1318.05	0.039755424
1319.71	0.040652834
1321.38	0.041660847
1323.05	0.042816109
1324.71	0.044049376
1326.37	0.045365037
1328.03	0.046770599
1329.69	0.048220981
1331.35	0.049616784
1333.01	0.050905847
1334.67	0.051889653
1336.33	0.052509422
1337.98	0.052764306
1339.64	0.052647426
1341.29	0.052171466
1342.95	0.05140095
1344.6	0.050428742
1346.25	0.049346617
1347.9	0.048479924
1349.55	0.047943199
1351.19	0.047854893
1352.84	0.04831525
1354.49	0.049195804
1356.13	0.050488039
1357.78	0.052409818
1359.42	0.054952096
1361.06	0.057801275
1362.7	0.06089425
1364.34	0.064267764
1365.98	0.067823699
1367.62	0.071542367
1369.26	0.075327572
1370.89	0.079009225
1372.53	0.082453086
1374.16	0.085414919
1375.79	0.087725193
1377.43	0.089227192
1379.06	0.089828845
1380.69	0.089085983
1382.32	0.086962219
1383.94	0.083773224
1385.57	0.079644472
1387.2	0.07486092
1388.82	0.069655534
1390.45	0.064550901
1392.07	0.059763527
1393.69	0.055592711
1395.31	0.052212226
1396.93	0.049282115
1398.55	0.046775168
1400.17	0.044986187
1401.79	0.043875098
1403.4	0.042965847
1405.02	0.042178293
1406.63	0.041514836
1408.25	0.040863319
1409.86	0.040355767
1411.47	0.039982609
1413.08	0.039358234
1414.69	0.038441146
1416.3	0.037448034
1417.9	0.036351421
1419.51	0.035294683
1421.12	0.034342833
1422.72	0.033130459
1424.32	0.031626137
1425.93	0.030293754
1427.53	0.02918722
1429.13	0.027911923
1430.73	0.026474724
1432.32	0.025295095
1433.92	0.024418546
1435.52	0.023564463
1437.11	0.022751877
1438.71	0.022245942
1440.3	0.022059684
1441.89	0.022096481
1443.48	0.022379994
1445.08	0.022835258
1446.66	0.023436267
1448.25	0.024349867
1449.84	0.025558877
1451.43	0.027006214
1453.01	0.028670098
1454.6	0.030325351
1456.18	0.031881227
1457.76	0.033440944
1459.34	0.034962527
1460.92	0.03612198
1462.5	0.036861517
1464.08	0.037396381
1465.66	0.037711833
1467.24	0.037728616
1468.81	0.037434203
1470.39	0.036942948
1471.96	0.036253882
1473.53	0.035084784
1475.1	0.033410775
1476.67	0.031329722
1478.24	0.028870982
1479.81	0.025974819
1481.38	0.022708762
1482.94	0.019424398
1484.51	0.01622962
1486.07	0.013248067
1487.64	0.010580981
1489.2	0.008249282
1490.76	0.00628479
1492.32	0.004683722
1493.88	0.003434244
1495.44	0.00246112
1497	0.001738881
1498.55	0.001150195
1500.11	0.000640362
1501.66	0.000353178
1503.22	0.000279834
1504.77	0.000192054
1506.32	5.59934E-05
1507.87	1.50281E-05
1509.42	5.83192E-05
1510.97	5.64278E-05
1512.52	4.49759E-07
1514.07	-1.73029E-05
1515.61	5.40978E-06
1517.16	3.36317E-06
1518.7	-2.16443E-05
1520.24	-8.05822E-07
1521.78	6.33843E-05
1523.32	0.0001691
1524.86	0.000314338
1526.4	0.000438162
1527.94	0.000546982
1529.48	0.000522104
1531.01	0.00033836
1532.55	0.000323627
1534.08	0.000516093
1535.61	0.000676953
1537.15	0.000798051
1538.68	0.001031889
1540.21	0.00137705
1541.73	0.001589056
1543.26	0.001643643
1544.79	0.001761612
1546.32	0.001954212
1547.84	0.002087455
1549.36	0.002153033
1550.89	0.002344475
1552.41	0.002678121
1553.93	0.002851765
1555.45	0.002835031
1556.97	0.002867089
1558.49	0.002947768
1560	0.002917952
1561.52	0.00280011
1563.03	0.002602999
1564.55	0.002310147
1566.06	0.00220164
1567.57	0.002327495
1569.08	0.00236893
1570.59	0.002298553
1572.1	0.002389368
1573.61	0.002647592
1575.12	0.002732008
1576.62	0.00262537
1578.13	0.002571492
1579.63	0.002570204
1581.13	0.002597894
1582.64	0.002679082
1584.14	0.002788715
1585.64	0.002916968
1587.14	0.003090686
1588.63	0.003295094
1590.13	0.003486138
1591.63	0.003673256
1593.12	0.003674415
1594.62	0.003454758
1596.11	0.003395613
1597.6	0.003541507
1599.09	0.003590077
1600.58	0.003533744
1602.07	0.003626474
1603.56	0.003865918
1605.05	0.004017161
1606.53	0.004070654
1608.02	0.004072927
1609.5	0.004007942
1610.98	0.003908461
1612.47	0.00379566
1613.95	0.00366114
1615.43	0.003505041
1616.91	0.003485207
1618.38	0.003623331
1619.86	0.00370328
1621.34	0.003706182
1622.81	0.003729629
1624.29	0.003765954
1625.76	0.003729898
1627.23	0.00361906
1628.7	0.00355112
1630.17	0.00354161
1631.64	0.003511185
1633.11	0.003457892
1634.58	0.003493264
1636.04	0.003623967
1637.51	0.003712091
1638.97	0.003743521
1640.44	0.003796852
1641.9	0.003876763
1643.36	0.003866205
1644.82	0.0037501
1646.28	0.003758789
1647.74	0.003920509
1649.19	0.003983358
1650.65	0.003928725
1652.11	0.003994768
1653.56	0.004187259
1655.01	0.004279026
1656.47	0.00425929
1657.92	0.004257633
1659.37	0.004274482
1660.82	0.004225318
1662.27	0.004108746
1663.71	0.0040638
1665.16	0.004107624
1666.6	0.004092044
1668.05	0.004016651
1669.49	0.003979814
1670.93	0.003978217
1672.38	0.0040293
1673.82	0.004134455
1675.26	0.004271496
1676.69	0.004432114
1678.13	0.00451074
1679.57	0.004497206
1681	0.004380414
1682.44	0.004154856
1683.87	0.00398068
1685.3	0.003879425
1686.74	0.003853929
1688.17	0.003926848
1689.6	0.003980883
1691.02	0.003985203
1692.45	0.004065515
1693.88	0.004231937
1695.3	0.00421474
1696.73	0.003987221
1698.15	0.003857818
1699.57	0.003839087
1701	0.003794228
1702.42	0.003737909
1703.84	0.003664445
1705.25	0.003560402
1706.67	0.003436706
1708.09	0.003302778
1709.5	0.003128154
1710.92	0.00291378
1712.33	0.002794021
1713.74	0.002780772
1715.16	0.00281634
1716.57	0.002905416
1717.98	0.00296897
1719.38	0.00298035
1720.79	0.003009595
1722.2	0.003058436
1723.6	0.003015195
1725.01	0.002874592
1726.41	0.002759465
1727.82	0.002679625
1729.22	0.002607555
1730.62	0.002552211
1732.02	0.002537334
1733.42	0.002562929
1734.81	0.002576697
1736.21	0.002572332
1737.61	0.002559881
1739	0.002538109
1740.4	0.002502113
1741.79	0.002454257
1743.18	0.002443683
1744.57	0.002471187
1745.96	0.002545461
1747.35	0.002671637
1748.74	0.002744649
1750.12	0.00274358
1751.51	0.002752721
1752.89	0.002784404
1754.28	0.00269899
1755.66	0.002480694
1757.04	0.00241694
1758.42	0.002535148
1759.8	0.002577012
1761.18	0.002547049
1762.56	0.002508929
1763.94	0.00243469
1765.31	0.002476676
1766.69	0.00267014
1768.06	0.002745855
1769.44	0.002672859
1770.81	0.002750248
1772.18	0.002994028
1773.55	0.003102015
1774.92	0.003050291
1776.28	0.003101766
1777.65	0.003269901
1779.02	0.003259717
1780.38	0.003053386
1781.75	0.002952752
1783.11	0.002975721
1784.47	0.002911638
1785.83	0.002766245
1787.19	0.002674111
1788.55	0.002636117
1789.91	0.002598695
1791.27	0.002556046
1792.62	0.002585284
1793.98	0.002697823
1795.33	0.002669986
1796.69	0.002477919
1798.04	0.002354709
1799.39	0.002314229
1800.74	0.0022455
1802.09	0.002158952
1803.44	0.002142108
1804.78	0.002194752
1806.13	0.00225506
1807.47	0.002317262
1808.82	0.002383546
1810.16	0.002439229
1811.5	0.002471518
1812.85	0.002478325
1814.19	0.002403711
1815.52	0.002241841
1816.86	0.00206801
1818.2	0.00189544
1819.54	0.001711675
1820.87	0.001530388
1822.21	0.001402397
1823.54	0.001327868
1824.87	0.001329235
1826.2	0.001416905
1827.53	0.00143057
1828.86	0.001340893
1830.19	0.001314565
1831.52	0.001367341
1832.84	0.001297823
1834.17	0.001087599
1835.49	0.00103666
1836.82	0.001168392
1838.14	0.001198216
1839.46	0.001123335
1840.78	0.001068818
1842.1	0.00101541
1843.42	0.001023056
1844.74	0.001120371
1846.05	0.001130457
1847.37	0.001028767
1848.68	0.00105107
1850	0.001211683
1851.31	0.001280156
1852.62	0.001247454
1853.93	0.001248818
1855.24	0.001279844
1856.55	0.001280363
1857.86	0.001263365
1859.16	0.001237507
1860.47	0.001192647
1861.77	0.001248948
1863.08	0.001422491
1864.38	0.001534321
1865.68	0.001562206
1866.98	0.001617991
1868.28	0.001693608
1869.58	0.001662408
1870.88	0.001537123
1872.17	0.001310746
1873.47	0.000970157
1874.76	0.000815023
1876.06	0.000889726
1877.35	0.000941135
1878.64	0.000970409
1879.93	0.001029604
1881.22	0.001080163
1882.51	0.001210515
1883.8	0.001441921
1885.08	0.001483043
1886.37	0.001296093
1887.65	0.001219393
1888.94	0.00127283
1890.22	0.00121894
1891.5	0.001071274
1892.78	0.000942812
1894.06	0.00082482
1895.34	0.000790353
1896.62	0.000856223
1897.9	0.000921625
1899.17	0.000979485
1900.45	0.001005028
1901.72	0.000973707
1902.99	0.000952358
1904.26	0.000963936
1905.54	0.000825893
1906.81	0.000510385
1908.07	0.000415255
1909.34	0.000588054
1910.61	0.000598364
1911.87	0.00041999
1913.14	0.00040237
1914.4	0.000559881
1915.67	0.000560454
1916.93	0.000378826
1918.19	0.000392123
1919.45	0.000624626
1920.71	0.000681066
1921.97	0.000540555
1923.22	0.0004995
1924.48	0.000555449
1925.73	0.000545235
1926.99	0.000486284
1928.24	0.000381621
1929.49	0.000210828
1930.74	0.000148258
1931.99	0.000224007
1933.24	0.000214088
1934.49	0.000107402
1935.74	7.53665E-05
1936.98	0.000111222
1938.23	0.00016297
1939.47	0.000247671
1940.71	0.00025789
1941.96	0.000166033
1943.2	0.000180929
1944.44	0.000323359
1945.68	0.000367868
1946.91	0.000311445
1948.15	0.000297492
1949.39	0.000319083
1950.62	0.000403214
1951.86	0.000571341
1953.09	0.000707541
1954.32	0.00079224
1955.55	0.000946297
1956.78	0.001163172
1958.01	0.001336331
1959.24	0.001465321
1960.47	0.001496764
1961.69	0.001419427
1962.92	0.001334709
1964.14	0.001250538
1965.37	0.001230158
1966.59	0.001305255
1967.81	0.001335613
1969.03	0.001304468
1970.25	0.001394668
1971.47	0.001612389
1972.69	0.001781371
1973.9	0.001895735
1975.12	0.001997624
1976.33	0.002070456
1977.54	0.002159401
1978.76	0.002277831
1979.97	0.002356009
1981.18	0.002389393
1982.39	0.00246774
1983.6	0.002598648
1984.8	0.002706369
1986.01	0.002781027
1987.21	0.002911875
1988.42	0.003104526
1989.62	0.003195566
1990.82	0.003165519
1992.03	0.003167437
1993.23	0.003211691
1994.43	0.003158978
1995.62	0.003005323
1996.82	0.002917717
1998.02	0.002910409
1999.21	0.002852728
2000.41	0.002749262
2001.6	0.002672274
2002.79	0.002616684
2003.98	0.002606679
